 -0.64
 -0.64
 -0.67
 -0.6899999999999999
 -0.72
 -0.72
 -0.72
 -0.72
 -0.83
 -0.93
 -1.04
 -1.04
 -1.04
 -1.04
 -1.15
 -1.25
 -1.36
 -1.36
 -1.36
 -1.36
 -1.47
 -1.57
 -1.68
 -1.73
 -1.79
 -1.84
 -1.84
 -1.84
 -1.84
 -1.71
 -1.57
 -1.44
 -1.44
 -1.44
 -1.44
 -0.67
 0.11
 0.88
 0.88
 0.88
 0.88
 2.03
 3.17
 4.32
 4.85
 5.39
 5.92
 5.92
 5.92
 5.92
 6.64
 7.36
 8.08
 8.08
 8.08
 8.08
 8.35
 8.609999999999999
 8.880000000000001
 8.880000000000001
 8.880000000000001
 8.880000000000001
 8.85
 8.83
 8.800000000000001
 8.69
 8.59
 8.48
 8.48
 8.48
 8.48
 8.16
 7.84
 7.52
 7.52
 7.52
 7.52
 7.17
 6.83
 6.48
 6.48
 6.48
 6.48
 6.16
 5.84
 5.52
 5.39
 5.25
 5.12
 5.12
 5.12
 5.12
 4.91
 4.69
 4.48
 4.48
 4.48
 4.48
 4.27
 4.05
 3.84
 3.84
 3.84
 3.84
 3.71
 3.57
 3.44
 3.31
 3.17
 3.04
 2.91
 2.77
 2.64
 2.45
 2.27
 2.08
 2.08
 2.08
 2.08
 1.97
 1.87
 1.76
 1.76
 1.76
 1.76
 1.71
 1.65
 1.6
 1.57
 1.55
 1.52
 1.52
 1.52
 1.52
 1.44
 1.36
 1.28
 1.28
 1.28
 1.28
 1.17
 1.07
 0.96
 0.96
 0.96
 0.96
 0.77
 0.59
 0.4
 0.32
 0.24
 0.16
 0.16
 0.16
 0.16
 0
 -0.16
 -0.32
 -0.32
 -0.32
 -0.32
 -0.45
 -0.59
 -0.72
 -0.72
 -0.72
 -0.72
 -0.83
 -0.93
 -1.04
 -1.07
 -1.09
 -1.12
 -1.12
 -1.12
 -1.12
 -1.15
 -1.17
 -1.2
 -1.25
 -1.31
 -1.36
 -1.44
 -1.52
 -1.6
 -1.65
 -1.71
 -1.76
 -1.92
 -2.08
 -2.24
 -2.32
 -2.4
 -2.48
 -2.48
 -2.48
 -2.48
 -2.69
 -2.91
 -3.12
 -3.12
 -3.12
 -3.12
 -3.31
 -3.49
 -3.68
 -3.68
 -3.68
 -3.68
 -3.63
 -3.57
 -3.52
 -3.52
 -3.52
 -3.52
 -3.25
 -2.99
 -2.72
 -1.65
 -0.59
 0.48
 0.48
 0.48
 0.48
 1.6
 2.72
 3.84
 3.84
 3.84
 3.84
 4.56
 5.28
 6
 6
 6
 6
 6.19
 6.37
 6.56
 6.64
 6.72
 6.8
 6.8
 6.8
 6.8
 6.61
 6.43
 6.24
 6.24
 6.24
 6.24
 6.08
 5.92
 5.76
 5.41
 5.07
 4.72
 4.72
 4.72
 4.72
 4.4
 4.08
 3.76
 3.76
 3.76
 3.76
 3.6
 3.44
 3.28
 3.17
 3.07
 2.96
 2.72
 2.48
 2.24
 2.16
 2.08
 2
 2
 2
 2
 1.89
 1.79
 1.68
 1.57
 1.47
 1.36
 1.09
 0.83
 0.5600000000000001
 0.5600000000000001
 0.5600000000000001
 0.5600000000000001
 0.4
 0.24
 0.08
 0.08
 0.08
 0.08
 0.03
 -0.03
 -0.08
 -0.13
 -0.19
 -0.24
 -0.24
 -0.24
 -0.24
 -0.32
 -0.4
 -0.48
 -0.48
 -0.48
 -0.48
 -0.59
 -0.6899999999999999
 -0.8
 -0.8
 -0.8
 -0.8
 -0.85
 -0.91
 -0.96
 -1.07
 -1.17
 -1.28
 -1.33
 -1.39
 -1.44
 -1.49
 -1.55
 -1.6
 -1.65
 -1.71
 -1.76
 -1.89
 -2.03
 -2.16
 -2.16
 -2.16
 -2.16
 -2.21
 -2.27
 -2.32
 -2.35
 -2.37
 -2.4
 -2.43
 -2.45
 -2.48
 -2.53
 -2.59
 -2.64
 -2.64
 -2.64
 -2.64
 -2.67
 -2.69
 -2.72
 -2.72
 -2.72
 -2.72
 -2.75
 -2.77
 -2.8
 -2.8
 -2.8
 -2.8
 -2.85
 -2.91
 -2.96
 -3.01
 -3.07
 -3.12
 -3.15
 -3.17
 -3.2
 -3.25
 -3.31
 -3.36
 -3.44
 -3.52
 -3.6
 -3.68
 -3.76
 -3.84
 -3.89
 -3.95
 -4
 -4.03
 -4.05
 -4.08
 -4.08
 -4.08
 -4.08
 -3.84
 -3.6
 -3.36
 -3.01
 -2.67
 -2.32
 -1.73
 -1.15
 -0.5600000000000001
 0.03
 0.61
 1.2
 1.81
 2.43
 3.04
 3.49
 3.95
 4.4
 4.83
 5.25
 5.68
 5.84
 6
 6.16
 6.32
 6.48
 6.64
 6.64
 6.64
 6.64
 6.64
 6.64
 6.64
 6.53
 6.43
 6.32
 6.19
 6.05
 5.92
 5.57
 5.23
 4.88
 4.88
 4.88
 4.88
 4.53
 4.19
 3.84
 3.84
 3.84
 3.84
 3.68
 3.52
 3.36
 3.09
 2.83
 2.56
 2.56
 2.56
 2.56
 2.4
 2.24
 2.08
 2.08
 2.08
 2.08
 2
 1.92
 1.84
 1.63
 1.41
 1.2
 1.2
 1.2
 1.2
 0.99
 0.77
 0.5600000000000001
 0.5600000000000001
 0.5600000000000001
 0.5600000000000001
 0.48
 0.4
 0.32
 0.27
 0.21
 0.16
 0.11
 0.05
 0
 -0.05
 -0.11
 -0.16
 -0.19
 -0.21
 -0.24
 -0.29
 -0.35
 -0.4
 -0.45
 -0.51
 -0.5600000000000001
 -0.64
 -0.72
 -0.8
 -0.88
 -0.96
 -1.04
 -1.12
 -1.2
 -1.28
 -1.39
 -1.49
 -1.6
 -1.68
 -1.76
 -1.84
 -1.92
 -2
 -2.08
 -2.16
 -2.24
 -2.32
 -2.43
 -2.53
 -2.64
 -2.69
 -2.75
 -2.8
 -2.85
 -2.91
 -2.96
 -3.01
 -3.07
 -3.12
 -3.17
 -3.23
 -3.28
 -3.31
 -3.33
 -3.36
 -3.41
 -3.47
 -3.52
 -3.57
 -3.63
 -3.68
 -3.71
 -3.73
 -3.76
 -3.79
 -3.81
 -3.84
 -3.87
 -3.89
 -3.92
 -3.97
 -4.03
 -4.08
 -4.13
 -4.19
 -4.24
 -4.29
 -4.35
 -4.4
 -4.48
 -4.56
 -4.64
 -4.72
 -4.8
 -4.88
 -4.96
 -5.04
 -5.12
 -5.23
 -5.33
 -5.44
 -5.52
 -5.6
 -5.68
 -5.79
 -5.89
 -6
 -5.95
 -5.89
 -5.84
 -5.31
 -4.77
 -4.24
 -4.24
 -4.24
 -4.24
 -3.79
 -3.33
 -2.88
 -2.27
 -1.65
 -1.04
 -0.48
 0.08
 0.64
 1.12
 1.6
 2.08
 2.08
 2.08
 3.04
 3.31
 3.57
 3.84
 3.89
 3.95
 4
 4.03
 4.05
 4.08
 3.97
 3.87
 3.76
 3.63
 3.49
 3.36
 3.17
 2.99
 2.8
 2.59
 2.37
 2.16
 1.92
 1.68
 1.44
 1.2
 0.96
 0.72
 0.27
 -0.19
 -0.64
 -0.64
 -0.64
 -0.64
 -0.85
 -1.07
 -1.28
 -1.49
 -1.71
 -1.92
 -2.08
 -2.24
 -2.4
 -2.59
 -2.77
 -2.96
 -3.12
 -3.28
 -3.44
 -3.63
 -3.81
 -4
 -4.16
 -4.32
 -4.48
 -4.61
 -4.75
 -4.88
 -5.04
 -5.2
 -5.36
 -5.47
 -5.57
 -5.68
 -5.79
 -5.89
 -6
 -6.05
 -6.11
 -6.16
 -6.21
 -6.27
 -6.32
 -6.35
 -6.37
 -6.4
 -6.45
 -6.51
 -6.56
 -6.61
 -6.67
 -6.72
 -6.8
 -6.88
 -6.96
 -7.04
 -7.12
 -7.2
 -7.25
 -7.31
 -7.36
 -7.47
 -7.57
 -7.68
 -7.79
 -7.89
 -8
 -8.130000000000001
 -8.27
 -8.4
 -8.51
 -8.609999999999999
 -8.720000000000001
 -8.85
 -8.99
 -9.119999999999999
 -9.25
 -9.390000000000001
 -9.52
 -9.630000000000001
 -9.73
 -9.84
 -9.949999999999999
 -10.05
 -10.16
 -10.16
 -10.16
 -10.16
 -10.16
 -10.16
 -10.16
 -10.16
 -10.16
 -10.16
 -10.16
 -10.16
 -10.16
 -10.16
 -10.16
 -10.16
 -10.16
 -10.16
 -10.16
 -10.16
 -10.16
 -10.16
 -10.16
 -10.16
 -10.16
 -10.16
 -10.16
 -10.16
 -10.16
 -10.16
 -10.16
 -10.16
 -10.16
 -10.16
 -10.16
 -10.16
 -10.16
 -10.16
 -10.16
 -10.16
 -10.16
 -10.16
 -10.16
 -10.16
 -10.16
 -10.16
 -10.16
 -10.16
 -10.16
 -10.16
 -10.16
 -10.16
 -10.16
 -10.16
 -10.16
 -10.16
 -10.16
 -10.16
 -10.16
 -10.16
 -10.16
 -10
 -9.84
 -9.68
 -8.99
 -8.289999999999999
 -7.6
 -6.91
 -6.21
 -5.52
 -4.88
 -4.24
 -3.6
 -3.15
 -2.69
 -2.24
 -1.84
 -1.44
 -1.04
 -0.91
 -0.77
 -0.64
 -0.51
 -0.37
 -0.24
 -0.27
 -0.29
 -0.32
 -0.4
 -0.48
 -0.5600000000000001
 -0.6899999999999999
 -0.83
 -0.96
 -1.15
 -1.33
 -1.52
 -1.71
 -1.89
 -2.08
 -2.32
 -2.56
 -2.8
 -3.04
 -3.28
 -3.52
 -3.73
 -3.95
 -4.16
 -4.35
 -4.53
 -4.72
 -4.93
 -5.15
 -5.36
 -5.57
 -5.79
 -6
 -6.21
 -6.43
 -6.64
 -6.8
 -6.96
 -7.12
 -7.31
 -7.49
 -7.68
 -7.84
 -8
 -8.16
 -8.289999999999999
 -8.43
 -8.56
 -8.609999999999999
 -8.67
 -8.720000000000001
 -8.75
 -8.77
 -8.800000000000001
 -8.85
 -8.91
 -8.960000000000001
 -8.960000000000001
 -8.960000000000001
 -8.960000000000001
 -8.93
 -8.91
 -8.880000000000001
 -8.85
 -8.83
 -8.800000000000001
 -8.77
 -8.75
 -8.720000000000001
 -8.67
 -8.609999999999999
 -8.56
 -8.529999999999999
 -8.51
 -8.48
 -8.48
 -8.48
 -8.48
 -8.48
 -8.48
 -8.48
 -8.51
 -8.529999999999999
 -8.56
 -8.59
 -8.609999999999999
 -8.640000000000001
 -8.67
 -8.69
 -8.720000000000001
 -8.720000000000001
 -8.720000000000001
 -8.720000000000001
 -8.75
 -8.77
 -8.800000000000001
 -8.800000000000001
 -8.800000000000001
 -8.800000000000001
 -8.800000000000001
 -8.800000000000001
 -8.800000000000001
 -8.77
 -8.75
 -8.720000000000001
 -8.69
 -8.67
 -8.640000000000001
 -8.609999999999999
 -8.59
 -8.56
 -8.529999999999999
 -8.51
 -8.48
 -8.449999999999999
 -8.43
 -8.4
 -8.35
 -8.289999999999999
 -8.24
 -8.210000000000001
 -8.19
 -8.16
 -8.130000000000001
 -8.109999999999999
 -8.08
 -8.08
 -8.08
 -8.08
 -8.050000000000001
 -8.029999999999999
 -8
 -7.97
 -7.95
 -7.92
 -7.89
 -7.87
 -7.84
 -7.84
 -7.84
 -7.84
 -7.81
 -7.79
 -7.76
 -7.71
 -7.65
 -7.6
 -7.39
 -7.17
 -6.96
 -6.61
 -6.27
 -5.92
 -5.41
 -4.91
 -4.4
 -3.76
 -3.12
 -2.48
 -1.76
 -1.04
 -0.32
 0.27
 0.85
 1.44
 2
 2.56
 3.12
 3.49
 3.87
 4.24
 4.53
 4.83
 5.12
 5.28
 5.44
 5.6
 5.65
 5.71
 5.76
 5.79
 5.81
 5.84
 5.79
 5.73
 5.68
 5.57
 5.47
 5.36
 5.2
 5.04
 4.88
 4.75
 4.61
 4.48
 4.32
 4.16
 4
 3.87
 3.73
 3.6
 3.44
 3.28
 3.12
 3.01
 2.91
 2.8
 2.69
 2.59
 2.48
 2.37
 2.27
 2.16
 2.08
 2
 1.92
 1.81
 1.71
 1.6
 1.52
 1.44
 1.36
 1.25
 1.15
 1.04
 0.93
 0.83
 0.72
 0.61
 0.51
 0.4
 0.32
 0.24
 0.16
 0.11
 0.05
 0
 -0.05
 -0.11
 -0.16
 -0.19
 -0.21
 -0.24
 -0.24
 -0.24
 -0.24
 -0.24
 -0.24
 -0.24
 -0.27
 -0.29
 -0.32
 -0.32
 -0.32
 -0.32
 -0.35
 -0.37
 -0.4
 -0.43
 -0.45
 -0.48
 -0.51
 -0.53
 -0.5600000000000001
 -0.61
 -0.67
 -0.72
 -0.75
 -0.77
 -0.8
 -0.83
 -0.85
 -0.88
 -0.93
 -0.99
 -1.04
 -1.07
 -1.09
 -1.12
 -1.15
 -1.17
 -1.2
 -1.23
 -1.25
 -1.28
 -1.31
 -1.33
 -1.36
 -1.36
 -1.36
 -1.36
 -1.36
 -1.36
 -1.36
 -1.39
 -1.41
 -1.44
 -1.47
 -1.49
 -1.52
 -1.55
 -1.57
 -1.6
 -1.65
 -1.71
 -1.76
 -1.84
 -1.92
 -2
 -2.05
 -2.11
 -2.16
 -2.21
 -2.27
 -2.32
 -2.4
 -2.48
 -2.56
 -2.64
 -2.72
 -2.8
 -2.85
 -2.91
 -2.96
 -2.91
 -2.85
 -2.8
 -2.64
 -2.48
 -2.32
 -1.89
 -1.47
 -1.04
 -0.5600000000000001
 -0.08
 0.4
 1.01
 1.63
 2.24
 2.8
 3.36
 3.92
 4.43
 4.93
 5.44
 5.79
 6.13
 6.48
 6.77
 7.07
 7.36
 7.47
 7.57
 7.68
 7.76
 7.84
 7.92
 7.87
 7.81
 7.76
 7.68
 7.6
 7.52
 7.41
 7.31
 7.2
 7.07
 6.93
 6.8
 6.61
 6.43
 6.24
 6.11
 5.97
 5.84
 5.68
 5.52
 5.36
 5.2
 5.04
 4.88
 4.75
 4.61
 4.48
 4.37
 4.27
 4.16
 4.08
 4
 3.92
 3.81
 3.71
 3.6
 3.49
 3.39
 3.28
 3.2
 3.12
 3.04
 3.04
 3.04
 2.8
 2.69
 2.59
 2.48
 2.37
 2.27
 2.16
 2.08
 2
 1.92
 1.84
 1.76
 1.68
 1.65
 1.63
 1.6
 1.57
 1.55
 1.52
 1.47
 1.41
 1.36
 1.33
 1.31
 1.28
 1.25
 1.23
 1.2
 1.15
 1.09
 1.04
 0.96
 0.88
 0.8
 0.75
 0.6899999999999999
 0.64
 0.59
 0.53
 0.48
 0.37
 0.27
 0.16
 0.08
 0
 -0.08
 -0.16
 -0.24
 -0.32
 -0.4
 -0.48
 -0.5600000000000001
 -0.64
 -0.72
 -0.8
 -0.85
 -0.91
 -0.96
 -1.01
 -1.07
 -1.12
 -1.17
 -1.23
 -1.28
 -1.33
 -1.39
 -1.44
 -1.49
 -1.55
 -1.6
 -1.65
 -1.71
 -1.76
 -1.81
 -1.87
 -1.92
 -1.97
 -2.03
 -2.08
 -2.16
 -2.24
 -2.32
 -2.37
 -2.43
 -2.48
 -2.53
 -2.59
 -2.64
 -2.75
 -2.85
 -2.96
 -3.04
 -3.12
 -3.2
 -3.28
 -3.36
 -3.44
 -3.49
 -3.55
 -3.6
 -3.68
 -3.76
 -3.84
 -3.73
 -3.63
 -3.52
 -3.25
 -2.99
 -2.72
 -2.29
 -1.87
 -1.44
 -0.88
 -0.32
 0.24
 0.85
 1.47
 2.08
 2.59
 3.09
 3.6
 4.05
 4.51
 4.96
 5.28
 5.6
 5.92
 6.13
 6.35
 6.56
 6.67
 6.77
 6.88
 6.88
 6.88
 6.88
 6.8
 6.72
 6.64
 6.51
 6.37
 6.24
 6.11
 5.97
 5.84
 5.65
 5.47
 5.28
 5.09
 4.91
 4.72
 4.56
 4.4
 4.24
 4.11
 3.97
 3.84
 3.71
 3.57
 3.44
 3.33
 3.23
 3.12
 3.01
 2.91
 2.8
 2.72
 2.64
 2.56
 2.48
 2.4
 2.32
 2.21
 2.11
 2
 1.92
 1.84
 1.76
 1.65
 1.55
 1.44
 1.33
 1.23
 1.12
 1.04
 0.96
 0.88
 0.8
 0.72
 0.64
 0.59
 0.53
 0.48
 0.43
 0.37
 0.32
 0.27
 0.21
 0.16
 0.11
 0.05
 0
 -0.03
 -0.05
 -0.08
 -0.13
 -0.19
 -0.24
 -0.32
 -0.4
 -0.48
 -0.5600000000000001
 -0.64
 -0.72
 -0.8
 -0.88
 -0.96
 -1.07
 -1.17
 -1.28
 -1.39
 -1.49
 -1.6
 -1.71
 -1.81
 -1.92
 -2
 -2.08
 -2.16
 -2.21
 -2.27
 -2.32
 -2.4
 -2.48
 -2.56
 -2.61
 -2.67
 -2.72
 -2.75
 -2.77
 -2.8
 -2.85
 -2.91
 -2.96
 -2.96
 -2.96
 -2.96
 -2.99
 -3.01
 -3.04
 -3.07
 -3.09
 -3.12
 -3.15
 -3.17
 -3.2
 -3.23
 -3.25
 -3.28
 -3.33
 -3.39
 -3.44
 -3.49
 -3.55
 -3.6
 -3.65
 -3.71
 -3.76
 -3.81
 -3.87
 -3.92
 -4
 -4.08
 -4.16
 -4.24
 -4.32
 -4.4
 -4.48
 -4.56
 -4.64
 -4.69
 -4.75
 -4.8
 -4.85
 -4.91
 -4.96
 -4.75
 -4.53
 -4.32
 -4
 -3.68
 -3.36
 -2.83
 -2.29
 -1.76
 -1.17
 -0.59
 0
 0.64
 1.28
 1.92
 2.4
 2.88
 3.36
 3.81
 4.27
 4.72
 4.93
 5.15
 5.36
 5.55
 5.73
 5.92
 5.97
 6.03
 6.08
 6.08
 6.08
 6.08
 5.97
 5.87
 5.76
 5.6
 5.44
 5.28
 5.09
 4.91
 4.72
 4.56
 4.4
 4.24
 4.05
 3.87
 3.68
 3.52
 3.36
 3.2
 3.04
 2.88
 2.72
 2.59
 2.45
 2.32
 2.19
 2.05
 1.92
 1.81
 1.71
 1.6
 1.49
 1.39
 1.28
 1.17
 1.07
 0.96
 0.85
 0.75
 0.64
 0.51
 0.37
 0.24
 0.13
 0.03
 -0.08
 -0.21
 -0.35
 -0.48
 -0.59
 -0.6899999999999999
 -0.8
 -0.83
 -0.85
 -0.88
 -0.93
 -0.99
 -1.04
 -1.09
 -1.15
 -1.2
 -1.23
 -1.25
 -1.28
 -1.33
 -1.39
 -1.44
 -1.49
 -1.55
 -1.6
 -1.68
 -1.76
 -1.84
 -1.92
 -2
 -2.08
 -2.19
 -2.29
 -2.4
 -2.51
 -2.61
 -2.72
 -2.83
 -2.93
 -3.04
 -3.15
 -3.25
 -3.36
 -3.49
 -3.63
 -3.76
 -3.92
 -4.08
 -4.24
 -4.37
 -4.51
 -4.64
 -4.8
 -4.96
 -5.12
 -5.23
 -5.33
 -5.44
 -5.55
 -5.65
 -5.76
 -5.87
 -5.97
 -6.08
 -6.21
 -6.35
 -6.48
 -6.59
 -6.69
 -6.8
 -6.88
 -6.96
 -7.04
 -7.15
 -7.25
 -7.36
 -7.47
 -7.57
 -7.68
 -7.76
 -7.84
 -7.92
 -8.029999999999999
 -8.130000000000001
 -8.24
 -8.35
 -8.449999999999999
 -8.56
 -8.67
 -8.77
 -8.880000000000001
 -8.99
 -9.09
 -9.199999999999999
 -9.31
 -9.41
 -9.52
 -9.630000000000001
 -9.73
 -9.84
 -9.92
 -10
 -10.08
 -10.08
 -10.08
 -10.08
 -10.03
 -9.970000000000001
 -9.92
 -9.81
 -9.710000000000001
 -9.6
 -9.119999999999999
 -8.640000000000001
 -8.16
 -7.6
 -7.04
 -6.48
 -5.81
 -5.15
 -4.48
 -3.89
 -3.31
 -2.72
 -2.21
 -1.71
 -1.2
 -0.88
 -0.5600000000000001
 -0.24
 0.05
 0.35
 0.64
 0.6899999999999999
 0.75
 0.8
 0.85
 0.91
 0.96
 0.88
 0.8
 0.72
 0.59
 0.45
 0.32
 0.16
 0
 -0.16
 -0.35
 -0.53
 -0.72
 -0.93
 -1.15
 -1.36
 -1.55
 -1.73
 -1.92
 -2.11
 -2.29
 -2.48
 -2.69
 -2.91
 -3.12
 -3.31
 -3.49
 -3.68
 -3.87
 -4.05
 -4.24
 -4.43
 -4.61
 -4.8
 -4.99
 -5.17
 -5.36
 -5.49
 -5.63
 -5.76
 -5.89
 -6.03
 -6.16
 -6.27
 -6.37
 -6.48
 -6.59
 -6.69
 -6.8
 -6.91
 -7.01
 -7.12
 -7.15
 -7.17
 -7.2
 -7.25
 -7.31
 -7.36
 -7.36
 -7.36
 -7.36
 -7.39
 -7.41
 -7.44
 -7.44
 -7.44
 -7.44
 -7.44
 -7.44
 -7.44
 -7.44
 -7.44
 -7.44
 -7.44
 -7.44
 -7.44
 -7.49
 -7.55
 -7.6
 -7.63
 -7.65
 -7.68
 -7.73
 -7.79
 -7.84
 -7.89
 -7.95
 -8
 -8.08
 -8.16
 -8.24
 -8.35
 -8.449999999999999
 -8.56
 -8.640000000000001
 -8.720000000000001
 -8.800000000000001
 -8.800000000000001
 -8.800000000000001
 -9.039999999999999
 -9.09
 -9.15
 -9.199999999999999
 -9.25
 -9.31
 -9.359999999999999
 -9.41
 -9.470000000000001
 -9.52
 -9.57
 -9.630000000000001
 -9.68
 -9.68
 -9.68
 -9.68
 -9.65
 -9.630000000000001
 -9.6
 -9.57
 -9.550000000000001
 -9.52
 -9.49
 -9.470000000000001
 -9.44
 -9.41
 -9.390000000000001
 -9.359999999999999
 -9.359999999999999
 -9.359999999999999
 -9.359999999999999
 -9.33
 -9.31
 -9.279999999999999
 -9.279999999999999
 -9.279999999999999
 -9.279999999999999
 -9.25
 -9.23
 -9.199999999999999
 -9.23
 -9.25
 -9.279999999999999
 -9.279999999999999
 -9.279999999999999
 -9.279999999999999
 -9.25
 -9.23
 -9.199999999999999
 -9.07
 -8.93
 -8.800000000000001
 -8.51
 -8.210000000000001
 -7.92
 -7.47
 -7.01
 -6.56
 -5.89
 -5.23
 -4.56
 -3.84
 -3.12
 -2.4
 -1.81
 -1.23
 -0.64
 -0.08
 0.48
 1.04
 1.47
 1.89
 2.32
 2.61
 2.91
 3.2
 3.36
 3.52
 3.68
 3.73
 3.79
 3.84
 3.87
 3.89
 3.92
 3.84
 3.76
 3.68
 3.57
 3.47
 3.36
 3.25
 3.15
 3.04
 2.88
 2.72
 2.56
 2.37
 2.19
 2
 1.84
 1.68
 1.52
 1.33
 1.15
 0.96
 0.83
 0.6899999999999999
 0.5600000000000001
 0.4
 0.24
 0.08
 -0.05
 -0.19
 -0.32
 -0.45
 -0.59
 -0.72
 -0.83
 -0.93
 -1.04
 -1.12
 -1.2
 -1.28
 -1.36
 -1.44
 -1.52
 -1.52
 -1.52
 -1.52
 -1.52
 -1.52
 -1.52
 -1.52
 -1.52
 -1.52
 -1.49
 -1.47
 -1.44
 -1.41
 -1.39
 -1.36
 -1.31
 -1.25
 -1.2
 -1.15
 -1.09
 -1.04
 -1.04
 -1.04
 -1.04
 -1.01
 -0.99
 -0.96
 -0.96
 -0.96
 -0.96
 -0.96
 -0.96
 -0.96
 -0.96
 -0.96
 -0.96
 -0.96
 -0.96
 -0.96
 -0.99
 -1.01
 -1.04
 -1.04
 -1.04
 -1.04
 -1.04
 -1.04
 -1.04
 -1.04
 -1.04
 -1.04
 -1.01
 -0.99
 -0.96
 -0.91
 -0.85
 -0.8
 -0.77
 -0.75
 -0.72
 -0.72
 -0.72
 -0.72
 -0.72
 -0.72
 -0.72
 -0.72
 -0.72
 -0.72
 -0.72
 -0.72
 -0.72
 -0.75
 -0.77
 -0.8
 -0.8
 -0.8
 -0.8
 -0.85
 -0.91
 -0.96
 -1.01
 -1.07
 -1.12
 -1.15
 -1.17
 -1.2
 -1.25
 -1.31
 -1.36
 -1.39
 -1.41
 -1.44
 -1.41
 -1.39
 -1.36
 -1.23
 -1.09
 -0.96
 -0.5600000000000001
 -0.16
 0.24
 0.72
 1.2
 1.68
 2.32
 2.96
 3.6
 4.21
 4.83
 5.44
 5.97
 6.51
 7.04
 7.44
 7.84
 8.24
 8.56
 8.880000000000001
 9.199999999999999
 9.33
 9.470000000000001
 9.6
 9.710000000000001
 9.81
 9.92
 9.890000000000001
 9.869999999999999
 9.84
 9.76
 9.68
 9.6
 9.470000000000001
 9.33
 9.199999999999999
 9.039999999999999
 8.880000000000001
 8.720000000000001
 8.529999999999999
 8.35
 8.16
 7.97
 7.79
 7.6
 7.41
 7.23
 7.04
 6.91
 6.77
 6.64
 6.48
 6.32
 6.16
 6.03
 5.89
 5.76
 5.63
 5.49
 5.36
 5.25
 5.15
 5.04
 4.91
 4.77
 4.64
 4.51
 4.37
 4.24
 4.11
 3.97
 3.84
 3.73
 3.63
 3.52
 3.41
 3.31
 3.2
 3.12
 3.04
 2.96
 2.85
 2.75
 2.64
 2.59
 2.53
 2.48
 2.43
 2.37
 2.32
 2.32
 2.32
 2.32
 2.29
 2.27
 2.24
 2.19
 2.13
 2.08
 2.05
 2.03
 2
 1.97
 1.95
 1.92
 1.84
 1.76
 1.68
 1.6
 1.52
 1.44
 1.39
 1.33
 1.28
 1.2
 1.12
 1.04
 0.93
 0.83
 0.72
 0.64
 0.5600000000000001
 0.48
 0.4
 0.32
 0.24
 0.19
 0.13
 0.08
 0
 -0.08
 -0.16
 -0.19
 -0.21
 -0.24
 -0.29
 -0.35
 -0.4
 -0.45
 -0.51
 -0.5600000000000001
 -0.64
 -0.72
 -0.8
 -0.88
 -0.96
 -1.04
 -1.09
 -1.15
 -1.2
 -1.28
 -1.36
 -1.44
 -1.55
 -1.65
 -1.76
 -1.84
 -1.92
 -2
 -2.11
 -2.21
 -2.32
 -2.43
 -2.53
 -2.64
 -2.75
 -2.85
 -2.96
 -2.99
 -3.01
 -3.04
 -3.04
 -3.04
 -3.04
 -2.77
 -2.51
 -2.24
 -1.87
 -1.49
 -1.12
 -0.5600000000000001
 0
 0.5600000000000001
 1.12
 1.68
 2.24
 2.77
 3.31
 3.84
 4.21
 4.59
 4.96
 5.31
 5.65
 6
 6.13
 6.27
 6.4
 6.51
 6.61
 6.72
 6.69
 6.67
 6.64
 6.56
 6.48
 6.4
 6.29
 6.19
 6.08
 5.92
 5.76
 5.6
 5.41
 5.23
 5.04
 4.88
 4.72
 4.56
 4.4
 4.24
 4.08
 3.92
 3.76
 3.6
 3.47
 3.33
 3.2
 3.09
 2.99
 2.88
 2.75
 2.61
 2.48
 2.37
 2.27
 2.16
 2.08
 2
 1.92
 1.81
 1.71
 1.6
 1.49
 1.39
 1.28
 1.17
 1.07
 0.96
 0.85
 0.75
 0.64
 0.53
 0.43
 0.32
 0.21
 0.11
 0
 -0.05
 -0.11
 -0.16
 -0.21
 -0.27
 -0.32
 -0.37
 -0.43
 -0.48
 -0.51
 -0.53
 -0.5600000000000001
 -0.61
 -0.67
 -0.72
 -0.77
 -0.83
 -0.88
 -0.96
 -1.04
 -1.12
 -1.17
 -1.23
 -1.28
 -1.36
 -1.44
 -1.52
 -1.57
 -1.63
 -1.68
 -1.76
 -1.84
 -1.92
 -1.97
 -2.03
 -2.08
 -2.13
 -2.19
 -2.24
 -2.29
 -2.35
 -2.4
 -2.45
 -2.51
 -2.56
 -2.61
 -2.67
 -2.72
 -2.72
 -2.72
 -2.72
 -2.75
 -2.77
 -2.8
 -2.83
 -2.85
 -2.88
 -2.91
 -2.93
 -2.96
 -2.96
 -2.96
 -2.96
 -2.99
 -3.01
 -3.04
 -3.09
 -3.15
 -3.2
 -3.25
 -3.31
 -3.36
 -3.44
 -3.52
 -3.6
 -3.65
 -3.71
 -3.76
 -3.84
 -3.92
 -4
 -4.08
 -4.16
 -4.24
 -4.29
 -4.35
 -4.4
 -4.48
 -4.56
 -4.64
 -4.59
 -4.53
 -4.48
 -4.24
 -4
 -3.76
 -3.33
 -2.91
 -2.48
 -1.92
 -1.36
 -0.8
 -0.16
 0.48
 1.12
 1.68
 2.24
 2.8
 3.31
 3.81
 4.32
 4.67
 5.01
 5.36
 5.36
 5.36
 6.08
 6.19
 6.29
 6.4
 6.4
 6.4
 6.4
 6.35
 6.29
 6.24
 6.11
 5.97
 5.84
 5.68
 5.52
 5.36
 5.17
 4.99
 4.8
 4.61
 4.43
 4.24
 4.05
 3.87
 3.68
 3.52
 3.36
 3.2
 3.04
 2.88
 2.72
 2.61
 2.51
 2.4
 2.27
 2.13
 2
 1.89
 1.79
 1.68
 1.55
 1.41
 1.28
 1.17
 1.07
 0.96
 0.85
 0.75
 0.64
 0.48
 0.32
 0.16
 0.05
 -0.05
 -0.16
 -0.24
 -0.32
 -0.4
 -0.48
 -0.5600000000000001
 -0.64
 -0.6899999999999999
 -0.75
 -0.8
 -0.85
 -0.91
 -0.96
 -0.99
 -1.01
 -1.04
 -1.09
 -1.15
 -1.2
 -1.2
 -1.2
 -1.2
 -1.2
 -1.2
 -1.2
 -1.23
 -1.25
 -1.28
 -1.33
 -1.39
 -1.44
 -1.49
 -1.55
 -1.6
 -1.68
 -1.76
 -1.84
 -1.92
 -2
 -2.08
 -2.13
 -2.19
 -2.24
 -2.32
 -2.4
 -2.48
 -2.53
 -2.59
 -2.64
 -2.72
 -2.8
 -2.88
 -2.93
 -2.99
 -3.04
 -3.09
 -3.15
 -3.2
 -3.25
 -3.31
 -3.36
 -3.39
 -3.41
 -3.44
 -3.47
 -3.49
 -3.52
 -3.52
 -3.52
 -3.52
 -3.55
 -3.57
 -3.6
 -3.63
 -3.65
 -3.68
 -3.73
 -3.79
 -3.84
 -3.92
 -4
 -4.08
 -4.11
 -4.13
 -4.16
 -4.21
 -4.27
 -4.32
 -4.4
 -4.48
 -4.56
 -4.64
 -4.72
 -4.8
 -4.91
 -5.01
 -5.12
 -5.15
 -5.17
 -5.2
 -5.2
 -5.2
 -5.2
 -4.96
 -4.72
 -4.48
 -4.13
 -3.79
 -3.44
 -2.85
 -2.27
 -1.68
 -1.09
 -0.51
 0.08
 0.67
 1.25
 1.84
 2.27
 2.69
 3.12
 3.52
 3.92
 4.32
 4.48
 4.64
 4.8
 4.93
 5.07
 5.2
 5.17
 5.15
 5.12
 5.04
 4.96
 4.88
 4.72
 4.56
 4.4
 4.21
 4.03
 3.84
 3.63
 3.41
 3.2
 2.99
 2.77
 2.56
 2.32
 2.08
 1.84
 1.63
 1.41
 1.2
 1.01
 0.83
 0.64
 0.43
 0.21
 0
 -0.16
 -0.32
 -0.48
 -0.67
 -0.85
 -1.04
 -1.17
 -1.31
 -1.44
 -1.6
 -1.76
 -1.92
 -2.11
 -2.29
 -2.48
 -2.67
 -2.85
 -3.04
 -3.23
 -3.41
 -3.6
 -3.73
 -3.87
 -4
 -4.16
 -4.32
 -4.48
 -4.59
 -4.69
 -4.8
 -4.91
 -5.01
 -5.12
 -5.2
 -5.28
 -5.36
 -5.44
 -5.52
 -5.6
 -5.68
 -5.76
 -5.84
 -5.92
 -6
 -6.08
 -6.16
 -6.24
 -6.32
 -6.43
 -6.53
 -6.64
 -6.75
 -6.85
 -6.96
 -7.07
 -7.17
 -7.28
 -7.39
 -7.49
 -7.6
 -7.71
 -7.81
 -7.92
 -8.050000000000001
 -8.19
 -8.32
 -8.48
 -8.640000000000001
 -8.800000000000001
 -8.93
 -9.07
 -9.199999999999999
 -9.33
 -9.470000000000001
 -9.6
 -9.710000000000001
 -9.81
 -9.92
 -10
 -10.08
 -10.16
 -10.16
 -10.16
 -10.16
 -10.16
 -10.16
 -10.16
 -10.16
 -10.16
 -10.16
 -10.16
 -10.16
 -10.16
 -10.16
 -10.16
 -10.16
 -10.16
 -10.16
 -10.16
 -10.16
 -10.16
 -10.16
 -10.16
 -10.16
 -10.16
 -10.16
 -10.16
 -10.16
 -10.16
 -10.16
 -10.16
 -10.16
 -10.16
 -10.16
 -10.16
 -10.16
 -10.16
 -10.16
 -10.16
 -10.16
 -10.16
 -10.16
 -10.16
 -10.16
 -10.16
 -10.16
 -10.16
 -10.16
 -10.16
 -10.16
 -10.16
 -10.16
 -10.13
 -10.11
 -10.08
 -9.890000000000001
 -9.710000000000001
 -9.52
 -8.77
 -8.029999999999999
 -7.28
 -6.61
 -5.95
 -5.28
 -4.67
 -4.05
 -3.44
 -3.04
 -2.64
 -2.24
 -1.89
 -1.55
 -1.2
 -1.09
 -0.99
 -0.88
 -0.77
 -0.67
 -0.5600000000000001
 -0.61
 -0.67
 -0.72
 -0.8
 -0.88
 -0.96
 -1.09
 -1.23
 -1.36
 -1.55
 -1.73
 -1.92
 -2.13
 -2.35
 -2.56
 -2.77
 -2.99
 -3.2
 -3.39
 -3.57
 -3.76
 -3.97
 -4.19
 -4.4
 -4.59
 -4.77
 -4.96
 -5.17
 -5.39
 -5.6
 -5.79
 -5.97
 -6.16
 -6.35
 -6.53
 -6.72
 -6.88
 -7.04
 -7.2
 -7.36
 -7.52
 -7.68
 -7.84
 -8
 -8.16
 -8.24
 -8.32
 -8.4
 -8.449999999999999
 -8.51
 -8.56
 -8.59
 -8.609999999999999
 -8.640000000000001
 -8.640000000000001
 -8.640000000000001
 -8.640000000000001
 -8.640000000000001
 -8.640000000000001
 -8.640000000000001
 -8.609999999999999
 -8.59
 -8.56
 -8.529999999999999
 -8.51
 -8.48
 -8.449999999999999
 -8.43
 -8.4
 -8.4
 -8.4
 -8.4
 -8.369999999999999
 -8.35
 -8.32
 -8.35
 -8.369999999999999
 -8.4
 -8.43
 -8.449999999999999
 -8.48
 -8.51
 -8.529999999999999
 -8.56
 -8.609999999999999
 -8.67
 -8.720000000000001
 -8.77
 -8.83
 -8.880000000000001
 -8.91
 -8.93
 -8.960000000000001
 -9.01
 -9.07
 -9.119999999999999
 -9.17
 -9.23
 -9.279999999999999
 -9.279999999999999
 -9.279999999999999
 -9.279999999999999
 -9.279999999999999
 -9.279999999999999
 -9.279999999999999
 -9.25
 -9.23
 -9.199999999999999
 -9.17
 -9.15
 -9.119999999999999
 -9.07
 -9.01
 -8.960000000000001
 -8.91
 -8.85
 -8.800000000000001
 -8.75
 -8.69
 -8.640000000000001
 -8.609999999999999
 -8.59
 -8.56
 -8.51
 -8.449999999999999
 -8.4
 -8.35
 -8.289999999999999
 -8.24
 -8.210000000000001
 -8.19
 -8.16
 -8.130000000000001
 -8.109999999999999
 -8.08
 -8.050000000000001
 -8.029999999999999
 -8
 -7.95
 -7.89
 -7.84
 -7.81
 -7.79
 -7.76
 -7.65
 -7.55
 -7.44
 -7.17
 -6.91
 -6.64
 -6.24
 -5.84
 -5.44
 -4.85
 -4.27
 -3.68
 -3.01
 -2.35
 -1.68
 -0.99
 -0.29
 0.4
 0.93
 1.47
 2
 2.48
 2.96
 3.44
 3.76
 4.08
 4.4
 4.61
 4.83
 5.04
 5.15
 5.25
 5.36
 5.39
 5.41
 5.44
 5.39
 5.33
 5.28
 5.17
 5.07
 4.96
 4.83
 4.69
 4.56
 4.4
 4.24
 4.08
 3.92
 3.76
 3.6
 3.44
 3.28
 3.12
 2.99
 2.85
 2.72
 2.61
 2.51
 2.4
 2.29
 2.19
 2.08
 1.95
 1.81
 1.68
 1.57
 1.47
 1.36
 1.28
 1.2
 1.12
 1.01
 0.91
 0.8
 0.72
 0.64
 0.5600000000000001
 0.48
 0.4
 0.32
 0.32
 0.32
 0.08
 0
 -0.08
 -0.16
 -0.24
 -0.32
 -0.4
 -0.45
 -0.51
 -0.5600000000000001
 -0.5600000000000001
 -0.5600000000000001
 -0.5600000000000001
 -0.59
 -0.61
 -0.64
 -0.67
 -0.6899999999999999
 -0.72
 -0.6899999999999999
 -0.67
 -0.64
 -0.61
 -0.59
 -0.5600000000000001
 -0.5600000000000001
 -0.5600000000000001
 -0.5600000000000001
 -0.5600000000000001
 -0.5600000000000001
 -0.5600000000000001
 -0.5600000000000001
 -0.5600000000000001
 -0.5600000000000001
 -0.61
 -0.67
 -0.72
 -0.77
 -0.83
 -0.88
 -0.91
 -0.93
 -0.96
 -0.99
 -1.01
 -1.04
 -1.07
 -1.09
 -1.12
 -1.15
 -1.17
 -1.2
 -1.25
 -1.31
 -1.36
 -1.39
 -1.41
 -1.44
 -1.44
 -1.44
 -1.44
 -1.47
 -1.49
 -1.52
 -1.55
 -1.57
 -1.6
 -1.63
 -1.65
 -1.68
 -1.73
 -1.79
 -1.84
 -1.89
 -1.95
 -2
 -2.05
 -2.11
 -2.16
 -2.24
 -2.32
 -2.4
 -2.45
 -2.51
 -2.56
 -2.64
 -2.72
 -2.8
 -2.88
 -2.96
 -3.04
 -3.09
 -3.15
 -3.2
 -3.2
 -3.2
 -3.2
 -3.01
 -2.83
 -2.64
 -2.37
 -2.11
 -1.84
 -1.28
 -0.72
 -0.16
 0.43
 1.01
 1.6
 2.19
 2.77
 3.36
 3.87
 4.37
 4.88
 5.31
 5.73
 6.16
 6.4
 6.64
 6.88
 7.09
 7.31
 7.52
 7.52
 7.52
 7.52
 7.55
 7.57
 7.6
 7.49
 7.39
 7.28
 7.15
 7.01
 6.88
 6.72
 6.56
 6.4
 6.24
 6.08
 5.92
 5.73
 5.55
 5.36
 5.23
 5.09
 4.96
 4.8
 4.64
 4.48
 4.32
 4.16
 4
 3.87
 3.73
 3.6
 3.49
 3.39
 3.28
 3.2
 3.12
 3.04
 2.93
 2.83
 2.72
 2.61
 2.51
 2.4
 2.29
 2.19
 2.08
 1.95
 1.81
 1.68
 1.57
 1.47
 1.36
 1.25
 1.15
 1.04
 0.99
 0.93
 0.88
 0.83
 0.77
 0.72
 0.6899999999999999
 0.67
 0.64
 0.61
 0.59
 0.5600000000000001
 0.53
 0.51
 0.48
 0.45
 0.43
 0.4
 0.35
 0.29
 0.24
 0.19
 0.13
 0.08
 0
 -0.08
 -0.16
 -0.21
 -0.27
 -0.32
 -0.4
 -0.48
 -0.5600000000000001
 -0.67
 -0.77
 -0.88
 -0.96
 -1.04
 -1.12
 -1.23
 -1.33
 -1.44
 -1.49
 -1.55
 -1.6
 -1.68
 -1.76
 -1.84
 -1.89
 -1.95
 -2
 -2.05
 -2.11
 -2.16
 -2.19
 -2.21
 -2.24
 -2.27
 -2.29
 -2.32
 -2.32
 -2.32
 -2.32
 -2.35
 -2.37
 -2.4
 -2.45
 -2.51
 -2.56
 -2.59
 -2.61
 -2.64
 -2.69
 -2.75
 -2.8
 -2.85
 -2.91
 -2.96
 -3.04
 -3.12
 -3.2
 -3.28
 -3.36
 -3.44
 -3.52
 -3.6
 -3.68
 -3.79
 -3.89
 -4
 -4
 -4
 -4
 -3.95
 -3.89
 -3.84
 -3.55
 -3.25
 -2.96
 -2.53
 -2.11
 -1.68
 -1.09
 -0.51
 0.08
 0.67
 1.25
 1.84
 2.45
 3.07
 3.68
 4.05
 4.43
 4.8
 5.15
 5.49
 5.84
 6.03
 6.21
 6.4
 6.51
 6.61
 6.72
 6.72
 6.72
 6.72
 6.64
 6.56
 6.48
 6.37
 6.27
 6.16
 6
 5.84
 5.68
 5.52
 5.36
 5.2
 5.04
 4.88
 4.72
 4.56
 4.4
 4.24
 4.08
 3.92
 3.76
 3.63
 3.49
 3.36
 3.2
 3.04
 2.88
 2.77
 2.67
 2.56
 2.48
 2.4
 2.32
 2.24
 2.16
 2.08
 1.97
 1.87
 1.76
 1.65
 1.55
 1.44
 1.33
 1.23
 1.12
 0.99
 0.85
 0.72
 0.64
 0.5600000000000001
 0.48
 0.4
 0.32
 0.24
 0.19
 0.13
 0.08
 0.03
 -0.03
 -0.08
 -0.13
 -0.19
 -0.24
 -0.27
 -0.29
 -0.32
 -0.37
 -0.43
 -0.48
 -0.53
 -0.59
 -0.64
 -0.6899999999999999
 -0.75
 -0.8
 -0.88
 -0.96
 -1.04
 -1.12
 -1.2
 -1.28
 -1.39
 -1.49
 -1.6
 -1.68
 -1.76
 -1.84
 -1.92
 -2
 -2.08
 -2.13
 -2.19
 -2.24
 -2.32
 -2.4
 -2.48
 -2.53
 -2.59
 -2.64
 -2.67
 -2.69
 -2.72
 -2.77
 -2.83
 -2.88
 -2.91
 -2.93
 -2.96
 -3.01
 -3.07
 -3.12
 -3.12
 -3.12
 -3.12
 -3.12
 -3.12
 -3.12
 -3.17
 -3.23
 -3.28
 -3.31
 -3.33
 -3.36
 -3.39
 -3.41
 -3.44
 -3.49
 -3.55
 -3.6
 -3.65
 -3.71
 -3.76
 -3.81
 -3.87
 -3.92
 -4
 -4.08
 -4.16
 -4.21
 -4.27
 -4.32
 -4.4
 -4.48
 -4.56
 -4.64
 -4.72
 -4.8
 -4.8
 -4.8
 -4.8
 -4.72
 -4.64
 -4.56
 -4.16
 -3.76
 -3.36
 -2.91
 -2.45
 -2
 -1.36
 -0.72
 -0.08
 0.51
 1.09
 1.68
 2.24
 2.8
 3.36
 3.76
 4.16
 4.56
 4.91
 5.25
 5.6
 5.71
 5.81
 5.92
 6.03
 6.13
 6.24
 6.19
 6.13
 6.08
 5.97
 5.87
 5.76
 5.63
 5.49
 5.36
 5.17
 4.99
 4.8
 4.59
 4.37
 4.16
 4
 3.84
 3.68
 3.49
 3.31
 3.12
 2.96
 2.8
 2.64
 2.48
 2.32
 2.16
 2.05
 1.95
 1.84
 1.71
 1.57
 1.44
 1.33
 1.23
 1.12
 1.01
 0.91
 0.8
 0.6899999999999999
 0.59
 0.48
 0.37
 0.27
 0.16
 0.03
 -0.11
 -0.24
 -0.35
 -0.45
 -0.5600000000000001
 -0.67
 -0.77
 -0.88
 -0.99
 -1.09
 -1.2
 -1.23
 -1.25
 -1.28
 -1.33
 -1.39
 -1.44
 -1.47
 -1.49
 -1.52
 -1.55
 -1.57
 -1.6
 -1.63
 -1.65
 -1.68
 -1.76
 -1.84
 -1.92
 -2
 -2.08
 -2.16
 -2.24
 -2.32
 -2.4
 -2.51
 -2.61
 -2.72
 -2.83
 -2.93
 -3.04
 -3.17
 -3.31
 -3.44
 -3.55
 -3.65
 -3.76
 -3.89
 -4.03
 -4.16
 -4.32
 -4.48
 -4.64
 -4.75
 -4.85
 -4.96
 -5.09
 -5.23
 -5.36
 -5.49
 -5.63
 -5.76
 -5.89
 -6.03
 -6.16
 -6.16
 -6.16
 -6.48
 -6.56
 -6.64
 -6.72
 -6.83
 -6.93
 -7.04
 -7.12
 -7.2
 -7.28
 -7.39
 -7.49
 -7.6
 -7.71
 -7.81
 -7.92
 -8
 -8.08
 -8.16
 -8.27
 -8.369999999999999
 -8.48
 -8.59
 -8.69
 -8.800000000000001
 -8.91
 -9.01
 -9.119999999999999
 -9.23
 -9.33
 -9.44
 -9.550000000000001
 -9.65
 -9.76
 -9.84
 -9.92
 -10
 -10.05
 -10.11
 -10.16
 -10.16
 -10.16
 -10.16
 -9.970000000000001
 -9.789999999999999
 -9.6
 -9.33
 -9.07
 -8.800000000000001
 -8.19
 -7.57
 -6.96
 -6.32
 -5.68
 -5.04
 -4.4
 -3.76
 -3.12
 -2.59
 -2.05
 -1.52
 -1.09
 -0.67
 -0.24
 0.03
 0.29
 0.5600000000000001
 0.77
 0.99
 1.2
 1.2
 1.2
 1.2
 1.2
 1.2
 1.2
 1.09
 0.99
 0.88
 0.75
 0.61
 0.48
 0.29
 0.11
 -0.08
 -0.29
 -0.51
 -0.72
 -0.93
 -1.15
 -1.36
 -1.57
 -1.79
 -2
 -2.19
 -2.37
 -2.56
 -2.77
 -2.99
 -3.2
 -3.39
 -3.57
 -3.76
 -3.97
 -4.19
 -4.4
 -4.56
 -4.72
 -4.88
 -5.07
 -5.25
 -5.44
 -5.57
 -5.71
 -5.84
 -5.97
 -6.11
 -6.24
 -6.35
 -6.45
 -6.56
 -6.64
 -6.72
 -6.8
 -6.88
 -6.96
 -7.04
 -7.07
 -7.09
 -7.12
 -7.17
 -7.23
 -7.28
 -7.28
 -7.28
 -7.28
 -7.31
 -7.33
 -7.36
 -7.36
 -7.36
 -7.36
 -7.39
 -7.41
 -7.44
 -7.44
 -7.44
 -7.44
 -7.47
 -7.49
 -7.52
 -7.57
 -7.63
 -7.68
 -7.73
 -7.79
 -7.84
 -7.89
 -7.95
 -8
 -8.109999999999999
 -8.210000000000001
 -8.32
 -8.4
 -8.48
 -8.56
 -8.640000000000001
 -8.720000000000001
 -8.800000000000001
 -8.880000000000001
 -8.960000000000001
 -9.039999999999999
 -9.15
 -9.25
 -9.359999999999999
 -9.44
 -9.52
 -9.6
 -9.68
 -9.76
 -9.84
 -9.869999999999999
 -9.890000000000001
 -9.92
 -9.949999999999999
 -9.970000000000001
 -10
 -10.03
 -10.05
 -10.08
 -10.11
 -10.13
 -10.16
 -10.13
 -10.11
 -10.08
 -10.08
 -10.08
 -10.08
 -10.05
 -10.03
 -10
 -10
 -10
 -10
 -9.970000000000001
 -9.949999999999999
 -9.92
 -9.92
 -9.92
 -9.92
 -9.890000000000001
 -9.869999999999999
 -9.84
 -9.84
 -9.84
 -9.84
 -9.84
 -9.84
 -9.84
 -9.789999999999999
 -9.73
 -9.68
 -9.57
 -9.470000000000001
 -9.359999999999999
 -9.07
 -8.77
 -8.48
 -8.029999999999999
 -7.57
 -7.12
 -6.45
 -5.79
 -5.12
 -4.4
 -3.68
 -2.96
 -2.32
 -1.68
 -1.04
 -0.45
 0.13
 0.72
 1.15
 1.57
 2
 2.29
 2.59
 2.88
 3.07
 3.25
 3.44
 3.49
 3.55
 3.6
 3.63
 3.65
 3.68
 3.57
 3.47
 3.36
 3.25
 3.15
 3.04
 2.85
 2.67
 2.48
 2.29
 2.11
 1.92
 1.73
 1.55
 1.36
 1.17
 0.99
 0.8
 0.59
 0.37
 0.16
 0.03
 -0.11
 -0.24
 -0.4
 -0.5600000000000001
 -0.72
 -0.88
 -1.04
 -1.2
 -1.36
 -1.52
 -1.68
 -1.79
 -1.89
 -2
 -2.08
 -2.16
 -2.24
 -2.35
 -2.45
 -2.56
 -2.56
 -2.56
 -2.56
 -2.59
 -2.61
 -2.64
 -2.64
 -2.64
 -2.64
 -2.61
 -2.59
 -2.56
 -2.51
 -2.45
 -2.4
 -2.35
 -2.29
 -2.24
 -2.19
 -2.13
 -2.08
 -2.05
 -2.03
 -2
 -1.95
 -1.89
 -1.84
 -1.81
 -1.79
 -1.76
 -1.73
 -1.71
 -1.68
 -1.68
 -1.68
 -1.68
 -1.68
 -1.68
 -1.68
 -1.71
 -1.73
 -1.76
 -1.76
 -1.76
 -1.76
 -1.76
 -1.76
 -1.76
 -1.73
 -1.71
 -1.68
 -1.65
 -1.63
 -1.6
 -1.6
 -1.6
 -1.6
 -1.57
 -1.55
 -1.52
 -1.49
 -1.47
 -1.44
 -1.41
 -1.39
 -1.36
 -1.33
 -1.31
 -1.28
 -1.28
 -1.28
 -1.28
 -1.28
 -1.28
 -1.28
 -1.28
 -1.28
 -1.28
 -1.31
 -1.33
 -1.36
 -1.41
 -1.47
 -1.52
 -1.55
 -1.57
 -1.6
 -1.63
 -1.65
 -1.68
 -1.73
 -1.79
 -1.84
 -1.87
 -1.89
 -1.92
 -1.84
 -1.76
 -1.68
 -1.36
 -1.04
 -0.72
 -0.32
 0.08
 0.48
 1.12
 1.76
 2.4
 3.01
 3.63
 4.24
 4.8
 5.36
 5.92
 6.37
 6.83
 7.28
 7.65
 8.029999999999999
 8.4
 8.609999999999999
 8.83
 9.039999999999999
 9.199999999999999
 9.359999999999999
 9.52
 9.52
 9.52
 9.52
 9.470000000000001
 9.41
 9.359999999999999
 9.25
 9.15
 9.039999999999999
 8.880000000000001
 8.720000000000001
 8.56
 8.4
 8.24
 8.08
 7.89
 7.71
 7.52
 7.33
 7.15
 6.96
 6.8
 6.64
 6.48
 6.32
 6.16
 6
 5.84
 5.68
 5.52
 5.39
 5.25
 5.12
 5.01
 4.91
 4.8
 4.69
 4.59
 4.48
 4.32
 4.16
 4
 3.87
 3.73
 3.6
 3.47
 3.33
 3.2
 3.07
 2.93
 2.8
 2.69
 2.59
 2.48
 2.37
 2.27
 2.16
 2.11
 2.05
 2
 1.95
 1.89
 1.84
 1.81
 1.79
 1.76
 1.73
 1.71
 1.68
 1.65
 1.63
 1.6
 1.57
 1.55
 1.52
 1.49
 1.47
 1.44
 1.39
 1.33
 1.28
 1.2
 1.12
 1.04
 0.99
 0.93
 0.88
 0.8
 0.72
 0.64
 0.5600000000000001
 0.48
 0.4
 0.32
 0.24
 0.16
 0.08
 0
 -0.08
 -0.13
 -0.19
 -0.24
 -0.32
 -0.4
 -0.48
 -0.51
 -0.53
 -0.5600000000000001
 -0.61
 -0.67
 -0.72
 -0.77
 -0.83
 -0.88
 -0.91
 -0.93
 -0.96
 -1.01
 -1.07
 -1.12
 -1.2
 -1.28
 -1.36
 -1.44
 -1.52
 -1.6
 -1.68
 -1.76
 -1.84
 -1.95
 -2.05
 -2.16
 -2.27
 -2.37
 -2.48
 -2.59
 -2.69
 -2.8
 -2.91
 -3.01
 -3.12
 -3.17
 -3.23
 -3.28
 -3.33
 -3.39
 -3.44
 -3.25
 -3.07
 -2.88
 -2.59
 -2.29
 -2
 -1.47
 -0.93
 -0.4
 0.13
 0.67
 1.2
 1.76
 2.32
 2.88
 3.36
 3.84
 4.32
 4.8
 5.28
 5.76
 5.97
 6.19
 6.4
 6.4
 6.4
 6.88
 6.93
 6.99
 7.04
 7.04
 7.04
 7.04
 6.93
 6.83
 6.72
 6.59
 6.45
 6.32
 6.16
 6
 5.84
 5.68
 5.52
 5.36
 5.17
 4.99
 4.8
 4.64
 4.48
 4.32
 4.19
 4.05
 3.92
 3.79
 3.65
 3.52
 3.39
 3.25
 3.12
 3.01
 2.91
 2.8
 2.69
 2.59
 2.48
 2.35
 2.21
 2.08
 1.95
 1.81
 1.68
 1.55
 1.41
 1.28
 1.17
 1.07
 0.96
 0.85
 0.75
 0.64
 0.53
 0.43
 0.32
 0.27
 0.21
 0.16
 0.08
 0
 -0.08
 -0.11
 -0.13
 -0.16
 -0.19
 -0.21
 -0.24
 -0.29
 -0.35
 -0.4
 -0.43
 -0.45
 -0.48
 -0.53
 -0.59
 -0.64
 -0.6899999999999999
 -0.75
 -0.8
 -0.88
 -0.96
 -1.04
 -1.15
 -1.25
 -1.36
 -1.41
 -1.47
 -1.52
 -1.57
 -1.63
 -1.68
 -1.76
 -1.84
 -1.92
 -2
 -2.08
 -2.16
 -2.19
 -2.21
 -2.24
 -2.27
 -2.29
 -2.32
 -2.37
 -2.43
 -2.48
 -2.51
 -2.53
 -2.56
 -2.56
 -2.56
 -2.56
 -2.59
 -2.61
 -2.64
 -2.69
 -2.75
 -2.8
 -2.83
 -2.85
 -2.88
 -2.91
 -2.93
 -2.96
 -3.01
 -3.07
 -3.12
 -3.17
 -3.23
 -3.28
 -3.33
 -3.39
 -3.44
 -3.52
 -3.6
 -3.68
 -3.76
 -3.84
 -3.92
 -3.97
 -4.03
 -4.08
 -4.16
 -4.24
 -4.32
 -4.32
 -4.32
 -4.32
 -4.16
 -4
 -3.84
 -3.52
 -3.2
 -2.88
 -2.37
 -1.87
 -1.36
 -0.75
 -0.13
 0.48
 1.04
 1.6
 2.16
 2.67
 3.17
 3.68
 4.05
 4.43
 4.8
 5.07
 5.33
 5.6
 5.76
 5.92
 6.08
 6.13
 6.19
 6.24
 6.24
 6.24
 6.24
 6.13
 6.03
 5.92
 5.79
 5.65
 5.52
 5.36
 5.2
 5.04
 4.88
 4.72
 4.56
 4.4
 4.24
 4.08
 3.92
 3.76
 3.6
 3.44
 3.28
 3.12
 3.01
 2.91
 2.8
 2.69
 2.59
 2.48
 2.37
 2.27
 2.16
 2.05
 1.95
 1.84
 1.73
 1.63
 1.52
 1.44
 1.36
 1.28
 1.2
 1.12
 1.04
 0.93
 0.83
 0.72
 0.64
 0.5600000000000001
 0.48
 0.4
 0.32
 0.24
 0.16
 0.08
 0
 -0.08
 -0.16
 -0.24
 -0.27
 -0.29
 -0.32
 -0.37
 -0.43
 -0.48
 -0.51
 -0.53
 -0.5600000000000001
 -0.61
 -0.67
 -0.72
 -0.77
 -0.83
 -0.88
 -0.91
 -0.93
 -0.96
 -1.01
 -1.07
 -1.12
 -1.2
 -1.28
 -1.36
 -1.44
 -1.52
 -1.6
 -1.65
 -1.71
 -1.76
 -1.84
 -1.92
 -2
 -2.08
 -2.16
 -2.24
 -2.32
 -2.4
 -2.48
 -2.53
 -2.59
 -2.64
 -2.69
 -2.75
 -2.8
 -2.85
 -2.91
 -2.96
 -2.99
 -3.01
 -3.04
 -3.07
 -3.09
 -3.12
 -3.12
 -3.12
 -3.12
 -3.15
 -3.17
 -3.2
 -3.23
 -3.25
 -3.28
 -3.33
 -3.39
 -3.44
 -3.52
 -3.6
 -3.68
 -3.73
 -3.79
 -3.84
 -3.89
 -3.95
 -4
 -4.05
 -4.11
 -4.16
 -4.24
 -4.32
 -4.4
 -4.51
 -4.61
 -4.72
 -4.8
 -4.88
 -4.96
 -5.04
 -5.12
 -5.2
 -5.12
 -5.04
 -4.96
 -4.77
 -4.59
 -4.4
 -3.97
 -3.55
 -3.12
 -2.56
 -2
 -1.44
 -0.8
 -0.16
 0.48
 1.04
 1.6
 2.16
 2.72
 3.28
 3.84
 4.16
 4.48
 4.8
 5.04
 5.28
 5.52
 5.63
 5.73
 5.84
 5.87
 5.89
 5.92
 5.84
 5.76
 5.68
 5.55
 5.41
 5.28
 5.12
 4.96
 4.8
 4.59
 4.37
 4.16
 3.97
 3.79
 3.6
 3.39
 3.17
 2.96
 2.77
 2.59
 2.4
 2.21
 2.03
 1.84
 1.68
 1.52
 1.36
 1.17
 0.99
 0.8
 0.67
 0.53
 0.4
 0.27
 0.13
 0
 -0.16
 -0.32
 -0.48
 -0.64
 -0.8
 -0.96
 -1.17
 -1.39
 -1.6
 -1.76
 -1.92
 -2.08
 -2.27
 -2.45
 -2.64
 -2.75
 -2.85
 -2.96
 -3.09
 -3.23
 -3.36
 -3.47
 -3.57
 -3.68
 -3.76
 -3.84
 -3.92
 -4.03
 -4.13
 -4.24
 -4.32
 -4.4
 -4.48
 -4.56
 -4.64
 -4.72
 -4.8
 -4.88
 -4.96
 -5.07
 -5.17
 -5.28
 -5.39
 -5.49
 -5.6
 -5.73
 -5.87
 -6
 -6.11
 -6.21
 -6.32
 -6.45
 -6.59
 -6.72
 -6.88
 -7.04
 -7.2
 -7.33
 -7.47
 -7.6
 -7.76
 -7.92
 -8.08
 -8.210000000000001
 -8.35
 -8.48
 -8.609999999999999
 -8.75
 -8.880000000000001
 -8.99
 -9.09
 -9.199999999999999
 -9.33
 -9.470000000000001
 -9.6
 -9.73
 -9.869999999999999
 -10
 -10.03
 -10.05
 -10.08
 -10.11
 -10.13
 -10.16
 -10.16
 -10.16
 -10.16
 -10.16
 -10.16
 -10.16
 -10.16
 -10.16
 -10.16
 -10.16
 -10.16
 -10.16
 -10.16
 -10.16
 -10.16
 -10.16
 -10.16
 -10.16
 -10.16
 -10.16
 -10.16
 -10.16
 -10.16
 -10.16
 -10.16
 -10.16
 -10.16
 -10.16
 -10.16
 -10.16
 -10.16
 -10.16
 -10.16
 -10.16
 -10.16
 -10.16
 -10.16
 -10.16
 -10.16
 -10.13
 -10.11
 -10.08
 -9.970000000000001
 -9.869999999999999
 -9.76
 -9.33
 -8.91
 -8.48
 -7.76
 -7.04
 -6.32
 -5.73
 -5.15
 -4.56
 -3.97
 -3.39
 -2.8
 -2.51
 -2.21
 -1.92
 -1.65
 -1.39
 -1.12
 -1.01
 -0.91
 -0.8
 -0.77
 -0.75
 -0.72
 -0.8
 -0.88
 -0.96
 -1.07
 -1.17
 -1.28
 -1.44
 -1.6
 -1.76
 -1.97
 -2.19
 -2.4
 -2.61
 -2.83
 -3.04
 -3.25
 -3.47
 -3.68
 -3.89
 -4.11
 -4.32
 -4.53
 -4.75
 -4.96
 -5.15
 -5.33
 -5.52
 -5.73
 -5.95
 -6.16
 -6.32
 -6.48
 -6.64
 -6.83
 -7.01
 -7.2
 -7.39
 -7.57
 -7.76
 -7.92
 -8.08
 -8.24
 -8.4
 -8.56
 -8.720000000000001
 -8.720000000000001
 -8.720000000000001
 -9.039999999999999
 -9.15
 -9.25
 -9.359999999999999
 -9.390000000000001
 -9.41
 -9.44
 -9.470000000000001
 -9.49
 -9.52
 -9.52
 -9.52
 -9.52
 -9.52
 -9.52
 -9.52
 -9.52
 -9.52
 -9.52
 -9.49
 -9.470000000000001
 -9.44
 -9.41
 -9.390000000000001
 -9.359999999999999
 -9.359999999999999
 -9.359999999999999
 -9.359999999999999
 -9.390000000000001
 -9.41
 -9.44
 -9.49
 -9.550000000000001
 -9.6
 -9.65
 -9.710000000000001
 -9.76
 -9.81
 -9.869999999999999
 -9.92
 -9.949999999999999
 -9.970000000000001
 -10
 -10.05
 -10.11
 -10.16
 -10.16
 -10.16
 -10.16
 -10.16
 -10.16
 -10.16
 -10.16
 -10.16
 -10.16
 -10.16
 -10.16
 -10.16
 -10.16
 -10.16
 -10.16
 -10.16
 -10.16
 -10.16
 -10.16
 -10.16
 -10.16
 -10.16
 -10.16
 -10.16
 -10.16
 -10.16
 -10.16
 -10.16
 -10.16
 -10.16
 -10.16
 -10.16
 -10.16
 -10.16
 -10.16
 -10.16
 -10.16
 -10.16
 -10.16
 -10.16
 -10.16
 -10.16
 -10.16
 -10.16
 -10.16
 -10.13
 -10.11
 -10.08
 -10.08
 -10.08
 -10.08
 -10
 -9.92
 -9.84
 -9.73
 -9.630000000000001
 -9.52
 -9.17
 -8.83
 -8.48
 -8.08
 -7.68
 -7.28
 -6.59
 -5.89
 -5.2
 -4.51
 -3.81
 -3.12
 -2.43
 -1.73
 -1.04
 -0.45
 0.13
 0.72
 1.2
 1.68
 2.16
 2.45
 2.75
 3.04
 3.31
 3.57
 3.84
 3.89
 3.95
 4
 4.08
 4.16
 4.24
 4.16
 4.08
 4
 3.89
 3.79
 3.68
 3.57
 3.47
 3.36
 3.2
 3.04
 2.88
 2.69
 2.51
 2.32
 2.19
 2.05
 1.92
 1.79
 1.65
 1.52
 1.39
 1.25
 1.12
 1.01
 0.91
 0.8
 0.6899999999999999
 0.59
 0.48
 0.37
 0.27
 0.16
 0.05
 -0.05
 -0.16
 -0.24
 -0.32
 -0.4
 -0.48
 -0.5600000000000001
 -0.64
 -0.6899999999999999
 -0.75
 -0.8
 -0.83
 -0.85
 -0.88
 -0.91
 -0.93
 -0.96
 -0.99
 -1.01
 -1.04
 -0.99
 -0.93
 -0.88
 -0.85
 -0.83
 -0.8
 -0.77
 -0.75
 -0.72
 -0.67
 -0.61
 -0.5600000000000001
 -0.53
 -0.51
 -0.48
 -0.45
 -0.43
 -0.4
 -0.37
 -0.35
 -0.32
 -0.32
 -0.32
 -0.32
 -0.35
 -0.37
 -0.4
 -0.43
 -0.45
 -0.48
 -0.53
 -0.59
 -0.64
 -0.67
 -0.6899999999999999
 -0.72
 -0.75
 -0.77
 -0.8
 -0.83
 -0.85
 -0.88
 -0.91
 -0.93
 -0.96
 -0.96
 -0.96
 -0.96
 -0.96
 -0.96
 -0.96
 -0.96
 -0.96
 -0.96
 -0.99
 -1.01
 -1.04
 -1.04
 -1.04
 -1.04
 -1.07
 -1.09
 -1.12
 -1.17
 -1.23
 -1.28
 -1.31
 -1.33
 -1.36
 -1.41
 -1.47
 -1.52
 -1.57
 -1.63
 -1.68
 -1.76
 -1.84
 -1.92
 -2
 -2.08
 -2.16
 -2.19
 -2.21
 -2.24
 -2.29
 -2.35
 -2.4
 -2.27
 -2.13
 -2
 -1.76
 -1.52
 -1.28
 -0.8
 -0.32
 0.16
 0.72
 1.28
 1.84
 2.43
 3.01
 3.6
 4.11
 4.61
 5.12
 5.6
 6.08
 6.56
 6.83
 7.09
 7.36
 7.57
 7.79
 8
 8.08
 8.16
 8.24
 8.289999999999999
 8.35
 8.4
 8.35
 8.289999999999999
 8.24
 8.130000000000001
 8.029999999999999
 7.92
 7.79
 7.65
 7.52
 7.36
 7.2
 7.04
 6.88
 6.72
 6.56
 6.4
 6.24
 6.08
 5.92
 5.76
 5.6
 5.44
 5.28
 5.12
 4.99
 4.85
 4.72
 4.59
 4.45
 4.32
 4.21
 4.11
 4
 3.92
 3.84
 3.76
 3.65
 3.55
 3.44
 3.33
 3.23
 3.12
 3.01
 2.91
 2.8
 2.72
 2.64
 2.56
 2.45
 2.35
 2.24
 2.19
 2.13
 2.08
 2
 1.92
 1.84
 1.79
 1.73
 1.68
 1.65
 1.63
 1.6
 1.57
 1.55
 1.52
 1.47
 1.41
 1.36
 1.31
 1.25
 1.2
 1.17
 1.15
 1.12
 1.07
 1.01
 0.96
 0.91
 0.85
 0.8
 0.72
 0.64
 0.5600000000000001
 0.48
 0.4
 0.32
 0.24
 0.16
 0.08
 -0.03
 -0.13
 -0.24
 -0.29
 -0.35
 -0.4
 -0.48
 -0.5600000000000001
 -0.64
 -0.6899999999999999
 -0.75
 -0.8
 -0.83
 -0.85
 -0.88
 -0.93
 -0.99
 -1.04
 -1.09
 -1.15
 -1.2
 -1.25
 -1.31
 -1.36
 -1.39
 -1.41
 -1.44
 -1.49
 -1.55
 -1.6
 -1.68
 -1.76
 -1.84
 -1.92
 -2
 -2.08
 -2.16
 -2.24
 -2.32
 -2.4
 -2.48
 -2.56
 -2.67
 -2.77
 -2.88
 -2.99
 -3.09
 -3.2
 -3.28
 -3.36
 -3.44
 -3.52
 -3.6
 -3.68
 -3.68
 -3.68
 -3.68
 -3.57
 -3.47
 -3.36
 -2.99
 -2.61
 -2.24
 -1.79
 -1.33
 -0.88
 -0.24
 0.4
 1.04
 1.65
 2.27
 2.88
 3.41
 3.95
 4.48
 4.91
 5.33
 5.76
 6.08
 6.4
 6.72
 6.85
 6.99
 7.12
 7.23
 7.33
 7.44
 7.41
 7.39
 7.36
 7.28
 7.2
 7.12
 6.99
 6.85
 6.72
 6.56
 6.4
 6.24
 6.08
 5.92
 5.76
 5.6
 5.44
 5.28
 5.09
 4.91
 4.72
 4.59
 4.45
 4.32
 4.16
 4
 3.84
 3.73
 3.63
 3.52
 3.41
 3.31
 3.2
 3.09
 2.99
 2.88
 2.77
 2.67
 2.56
 2.45
 2.35
 2.24
 2.13
 2.03
 1.92
 1.79
 1.65
 1.52
 1.41
 1.31
 1.2
 1.12
 1.04
 0.96
 0.88
 0.8
 0.72
 0.67
 0.61
 0.5600000000000001
 0.48
 0.4
 0.32
 0.29
 0.27
 0.24
 0.19
 0.13
 0.08
 0.03
 -0.03
 -0.08
 -0.13
 -0.19
 -0.24
 -0.29
 -0.35
 -0.4
 -0.48
 -0.5600000000000001
 -0.64
 -0.75
 -0.85
 -0.96
 -1.07
 -1.17
 -1.28
 -1.36
 -1.44
 -1.52
 -1.63
 -1.73
 -1.84
 -1.92
 -2
 -2.08
 -2.16
 -2.24
 -2.32
 -2.37
 -2.43
 -2.48
 -2.53
 -2.59
 -2.64
 -2.67
 -2.69
 -2.72
 -2.77
 -2.83
 -2.88
 -2.88
 -2.88
 -2.88
 -2.91
 -2.93
 -2.96
 -2.99
 -3.01
 -3.04
 -3.07
 -3.09
 -3.12
 -3.17
 -3.23
 -3.28
 -3.31
 -3.33
 -3.36
 -3.41
 -3.47
 -3.52
 -3.57
 -3.63
 -3.68
 -3.76
 -3.84
 -3.92
 -4
 -4.08
 -4.16
 -4.24
 -4.32
 -4.4
 -4.48
 -4.56
 -4.64
 -4.69
 -4.75
 -4.8
 -4.83
 -4.85
 -4.88
 -4.75
 -4.61
 -4.48
 -4.16
 -3.84
 -3.52
 -3.04
 -2.56
 -2.08
 -1.49
 -0.91
 -0.32
 0.32
 0.96
 1.6
 2.08
 2.56
 3.04
 3.47
 3.89
 4.32
 4.59
 4.85
 5.12
 5.31
 5.49
 5.68
 5.73
 5.79
 5.84
 5.84
 5.84
 5.84
 5.76
 5.68
 5.6
 5.44
 5.28
 5.12
 4.96
 4.8
 4.64
 4.48
 4.32
 4.16
 3.97
 3.79
 3.6
 3.41
 3.23
 3.04
 2.88
 2.72
 2.56
 2.4
 2.24
 2.08
 1.97
 1.87
 1.76
 1.63
 1.49
 1.36
 1.25
 1.15
 1.04
 0.96
 0.88
 0.8
 0.6899999999999999
 0.59
 0.48
 0.37
 0.27
 0.16
 0.05
 -0.05
 -0.16
 -0.27
 -0.37
 -0.48
 -0.5600000000000001
 -0.64
 -0.72
 -0.83
 -0.93
 -1.04
 -1.12
 -1.2
 -1.28
 -1.33
 -1.39
 -1.44
 -1.47
 -1.49
 -1.52
 -1.55
 -1.57
 -1.6
 -1.63
 -1.65
 -1.68
 -1.73
 -1.79
 -1.84
 -1.87
 -1.89
 -1.92
 -1.97
 -2.03
 -2.08
 -2.19
 -2.29
 -2.4
 -2.48
 -2.56
 -2.64
 -2.75
 -2.85
 -2.96
 -3.07
 -3.17
 -3.28
 -3.41
 -3.55
 -3.68
 -3.79
 -3.89
 -4
 -4.11
 -4.21
 -4.32
 -4.43
 -4.53
 -4.64
 -4.75
 -4.85
 -4.96
 -5.09
 -5.23
 -5.36
 -5.44
 -5.52
 -5.6
 -5.68
 -5.76
 -5.84
 -5.95
 -6.05
 -6.16
 -6.27
 -6.37
 -6.48
 -6.59
 -6.69
 -6.8
 -6.91
 -7.01
 -7.12
 -7.23
 -7.33
 -7.44
 -7.52
 -7.6
 -7.68
 -7.79
 -7.89
 -8
 -8.109999999999999
 -8.210000000000001
 -8.32
 -8.43
 -8.529999999999999
 -8.640000000000001
 -8.75
 -8.85
 -8.960000000000001
 -9.09
 -9.23
 -9.359999999999999
 -9.49
 -9.630000000000001
 -9.76
 -9.81
 -9.869999999999999
 -9.92
 -9.970000000000001
 -10.03
 -10.08
 -9.970000000000001
 -9.869999999999999
 -9.76
 -9.470000000000001
 -9.17
 -8.880000000000001
 -8.4
 -7.92
 -7.44
 -6.83
 -6.21
 -5.6
 -4.91
 -4.21
 -3.52
 -2.99
 -2.45
 -1.92
 -1.47
 -1.01
 -0.5600000000000001
 -0.24
 0.08
 0.4
 0.59
 0.77
 0.96
 1.04
 1.12
 1.2
 1.17
 1.15
 1.12
 1.04
 0.96
 0.88
 0.75
 0.61
 0.48
 0.32
 0.16
 0
 -0.21
 -0.43
 -0.64
 -0.85
 -1.07
 -1.28
 -1.49
 -1.71
 -1.92
 -2.16
 -2.4
 -2.64
 -2.85
 -3.07
 -3.28
 -3.47
 -3.65
 -3.84
 -4.03
 -4.21
 -4.4
 -4.61
 -4.83
 -5.04
 -5.23
 -5.41
 -5.6
 -5.76
 -5.92
 -6.08
 -6.21
 -6.35
 -6.48
 -6.59
 -6.69
 -6.8
 -6.91
 -7.01
 -7.12
 -7.2
 -7.28
 -7.36
 -7.41
 -7.47
 -7.52
 -7.57
 -7.63
 -7.68
 -7.68
 -7.68
 -7.68
 -7.71
 -7.73
 -7.76
 -7.79
 -7.81
 -7.84
 -7.84
 -7.84
 -7.84
 -7.87
 -7.89
 -7.92
 -7.95
 -7.97
 -8
 -8.029999999999999
 -8.050000000000001
 -8.08
 -8.130000000000001
 -8.19
 -8.24
 -8.32
 -8.4
 -8.48
 -8.56
 -8.640000000000001
 -8.720000000000001
 -8.77
 -8.83
 -8.880000000000001
 -8.960000000000001
 -9.039999999999999
 -9.119999999999999
 -9.23
 -9.33
 -9.44
 -9.52
 -9.6
 -9.68
 -9.73
 -9.789999999999999
 -9.84
 -9.890000000000001
 -9.949999999999999
 -10
 -10.05
 -10.11
 -10.16
 -10.16
 -10.16
 -10.16
 -10.16
 -10.16
 -10.16
 -10.16
 -10.16
 -10.16
 -10.16
 -10.16
 -10.16
 -10.16
 -10.16
 -10.16
 -10.16
 -10.16
 -10.16
 -10.16
 -10.16
 -10.16
 -10.16
 -10.16
 -10.16
 -10.16
 -10.16
 -10.16
 -10.16
 -10.16
 -10.16
 -10.13
 -10.11
 -10.08
 -10.08
 -10.08
 -10.08
 -10.11
 -10.13
 -10.16
 -10.13
 -10.11
 -10.08
 -10.03
 -9.970000000000001
 -9.92
 -9.789999999999999
 -9.65
 -9.52
 -9.17
 -8.83
 -8.48
 -7.97
 -7.47
 -6.96
 -6.29
 -5.63
 -4.96
 -4.24
 -3.52
 -2.8
 -2.08
 -1.36
 -0.64
 -0.16
 0.32
 0.8
 1.25
 1.71
 2.16
 2.43
 2.69
 2.96
 3.12
 3.28
 3.44
 3.49
 3.55
 3.6
 3.57
 3.55
 3.52
 3.41
 3.31
 3.2
 3.07
 2.93
 2.8
 2.64
 2.48
 2.32
 2.13
 1.95
 1.76
 1.57
 1.39
 1.2
 0.99
 0.77
 0.5600000000000001
 0.4
 0.24
 0.08
 -0.11
 -0.29
 -0.48
 -0.61
 -0.75
 -0.88
 -1.04
 -1.2
 -1.36
 -1.47
 -1.57
 -1.68
 -1.81
 -1.95
 -2.08
 -2.19
 -2.29
 -2.4
 -2.43
 -2.45
 -2.48
 -2.51
 -2.53
 -2.56
 -2.56
 -2.56
 -2.56
 -2.56
 -2.56
 -2.56
 -2.53
 -2.51
 -2.48
 -2.45
 -2.43
 -2.4
 -2.35
 -2.29
 -2.24
 -2.19
 -2.13
 -2.08
 -2.03
 -1.97
 -1.92
 -1.92
 -1.92
 -1.92
 -1.89
 -1.87
 -1.84
 -1.84
 -1.84
 -1.84
 -1.84
 -1.84
 -1.84
 -1.84
 -1.84
 -1.84
 -1.84
 -1.84
 -1.84
 -1.84
 -1.84
 -1.84
 -1.84
 -1.84
 -1.84
 -1.84
 -1.84
 -1.84
 -1.81
 -1.79
 -1.76
 -1.73
 -1.71
 -1.68
 -1.65
 -1.63
 -1.6
 -1.57
 -1.55
 -1.52
 -1.49
 -1.47
 -1.44
 -1.44
 -1.44
 -1.44
 -1.41
 -1.39
 -1.36
 -1.36
 -1.36
 -1.36
 -1.33
 -1.31
 -1.28
 -1.28
 -1.28
 -1.28
 -1.28
 -1.28
 -1.28
 -1.31
 -1.33
 -1.36
 -1.39
 -1.41
 -1.44
 -1.49
 -1.55
 -1.6
 -1.63
 -1.65
 -1.68
 -1.65
 -1.63
 -1.6
 -1.44
 -1.28
 -1.12
 -0.75
 -0.37
 0
 0